<Actel_Data_File>
    <format name="NVM File" version="01.00.00"/>
    <header>
        <die>
            M2S010
        </die>
        <family>
            SmartFusion2
        </family>
        <module>
            
        </module>
        <package>
            256 VF
        </package>
        <version>
            2023.2.0.8
        </version>
    </header>
    <nvm>
        <region name="PGM_store" address="0x000000" retrieveAddressFromFile="false" size="5632" format="HEX" type="Data Storage" wordSize="8" numberWords="5632" memFile="C:\Projects\Coronagraph\MicrosemiSmartFusion\Microchip_University_SF2_class\Hex_File\Fabric_PWM_Demo.hex" memType="INTELHEX" memFileTimeStamp="" clientType="public" program="true">
            <fabric_accessible/>
            <mss_accessible/>
            00000120910100007f030000810300008303000085030000870300000000
            0000000000000000000000000000890300008b030000000000008d030000
            8f03000091030000930300009503000097030000990300009b0300009d03
            00009f030000a1030000a3030000a5030000a7030000a9030000ab030000
            ad030000af030000b1030000b3030000b5030000c5050000b9030000bb03
            0000bd030000bf030000c1030000c3030000c5030000190a0000c50a0000
            cb030000cd030000cf030000d1030000d3030000d5030000d7030000d903
            0000db030000dd030000df030000e1030000e3030000e5030000e7030000
            e9030000eb030000ed030000ef030000f1030000f3030000f5030000f703
            0000f9030000fb030000fd030000ff030000010400000304000005040000
            07040000090400000b0400000d0400000f04000011040000130400001504
            000017040000190400001b0400001d0400001f0400002104000023040000
            2504000027040000290400002b0400002d0400002f040000310400003304
            000000000000000000004ff0000bdff8be020068dff8b612096801f00301
            00f01c00142801d14bf0020b002901d04bf0010bbbf1000f05d0a748a749
            dff8722200f09ff8a64880470bf0020abaf1000f0cd0dff86e02dff86e12
            02680b680fb44ff000024ff0ff0302600b609d484ff000024ff001030228
            08d1dff83a120a60dff83e120a60dff832120b60012808d1dff82a120a60
            dff826120a60dff81a120b609048002809d190489049914a00f030f89048
            9149914a00f02bf891489149924a00f026f891489249dff8e22100f058f8
            bbf1000f10d08f488f49dff8d62100f04ff80bf0020abaf1000f05d00fbc
            02600b6000bfaff30080dff820020ff2030e00474ff000004ff00001dff8
            14f2fee72de9f841884225d0b2eb010200d5fee740ea010313f0030302d0
            00f01df819e04ff0000390461211f7d09a421cbff0c8f0c103f10103f8d1
            08f00f08b8f1000f08d004780c7000f1010001f10101b8f10108f6d1bde8
            f88108b54ff0000303780b7000f1010001f10101013af7d108bd884237d0
            00f00306002e14d04ff00405a5eb06044ff0080707fb06f8914669fa08f9
            002c07d080f8009069fa07f900f10100013cf5e74ff000060f46091a8846
            0911914614461546b14206d018bfa0e8340206f10106b142f8d108f00f08
            b8f1000f07d002704fea322200f10100b8f10108f4e77047fee7fee7fee7
            fee7fee7fee7fee7fee7fee7fee7fee7fee7fee7fee7fee7fee7fee7fee7
            fee7fee7fee7fee7fee7fee7fee7fee7fee7fee7fee7fee7fee7fee7fee7
            fee7fee7fee7fee7fee7fee7fee7fee7fee7fee7fee7fee7fee7fee7fee7
            fee7fee7fee7fee7fee7fee7fee7fee7fee7fee7fee7fee7fee7fee7fee7
            fee7fee7fee7fee7fee7fee7fee7fee7fee7fee7fee7fee7fee7fee7fee7
            fee7fee7fee7fee7fee7fee7fee7fee7fee7fee7fee7fee7fee770470000
            0000a2a2a2a2008003400880034010800340308003403480034038800340
            18080240000000f00020000001202d0d0000000000000000000000000000
            0000000090010000b0040000b0040000d0110000d0110000000000203004
            002030040020c0040020c004002000f00020cd0e0000390e000000000000
            10b5054c237833b9044b13b10448aff300800123237010bd300400200000
            0000a411000008b5034b1bb103490348aff3008008bd0000000034040020
            a411000001607047006870470eb503fa01f303ea020301686fea020201ea
            020141ea030101600ebd006800ea020020fa01f070470180704700887047
            0eb503fa01f303ea020301886fea020201ea020141ea030101800ebd0088
            00ea020020fa01f0704701707047007870470eb503fa01f303ea02030178
            6fea020201ea020141ea030101700ebd007800ea020020fa01f070470b4b
            10b50b4c198823683bb10a4a89b2106898470023094a23601370084b1a46
            196841f0010119601368db07fcd410bd6c04002054040020640400207104
            002000600140964bf0b55c689a68e4b21440a10785b003d4e10710d405b0
            f0bd914d1a692b78d0b2052b00f2b081dfe813f03201a400a4001001e500
            5900894d2b78022b00f0a480052b54d0012b12d0844a854c936823f00103
            936023683bb1834a0021106898470023814a2360137000232b70d2e77f4e
            33889bb2002b00f02081774934880b68dff808c223f00403dcf800700b60
            4b68a4b203f001030193019a92b1002c00f06c810022781e01e094420ad0
            10f8013f01320b614b6803f001030193019b002bf2d133889bb2934240f2
            3581338817449a1a92b2ccf8007032809be7160440f10481634b1a68002a
            4bd1e20792d5614c236883b9614b1b68002b00f024815f48984720602368
            33b90321534a936823f00103936029702368002b00f0d8804e4d27682b68
            564823f0040306682b606b6803f001030393039bb3b1002f00f01f81013f
            3744721e01e0ba420cd0134612f8011f0233296169689b1b01f001010391
            03990029f0d11e4422680660d31a236050e715047ff54caf3e4b1a68002a
            3ff447af1b68984743e73b4c2368002b00f09480314e27683368394823f0
            0403d0f800c03360736803f0010302930299b9b1002f00f0e680013f6744
            0cf1ff3301e09f420dd0194613f8012f023132617268a1eb0c0102f00102
            0292029a002aefd123688b4273d922680ceb0103511a036021600fe71704
            72d4224a1a4913880e689bb2334413f8013cf12b00f0a4801d4913880988
            9bb28b4206d217881388bfb201339bb2f055138013889bb299420ed10c4f
            13883a6899b2002a63d0304690470023094a3b6013705ce0130460d4e307
            3ff5faae05b0f0bd00bf0060014070040020540400206404002071040020
            520400204c0400205804002068040020600400206c0400206e0400205c04
            00201204ddd5f12823d1002604223e4b2a701e8019881a8889b2013292b2
            1a803b4a1b8812689bb25054d654c9e7384b1b78002b3ff4a8ae05b0bde8
            f040fff776be0321344a936823f00103936029709ae6314b1a68002a7ff4
            4dafb1e72b4b2f4e1a683368507033b11046022198470023274a33601370
            00232b70e3073ff59daea1e7274b1b789842e2d1002304211e4a1e4e1380
            2970118813883668013389b29bb2138070548be700221e4b32801b68cbb1
            02232b7066e6154b1b78002b3ff4e3aefff733fedfe61188134f13888ab2
            b0543a689bb2002acdd0334413f8010c3b689847c7e703232b704ce62246
            a1e63b46f2e639462ce7084e3368002bbad0024a00211068b1e76c040020
            6404002071040020006001404c040020540400205004002058040020f0b4
            244cb2f5803f266806eb86044feac4154fea840405f1844504f1402707f5
            803705f52015c5f8c4317860b960fd684fea86034fea15454fea0545fd60
            20d9154ca2f5803201f58031c4e9031200f58030a0600124002033449a00
            02f1402202f58032d168db0103f1844303f5201341f4e001d160c3f8c041
            c3f8cc01f0bc70470020f96892b20a430349fa600861e0e700bf78040020
            7c040020684620f007018d4679b50124234d24492a6802eb82039b0002f5
            287003f1402341f8204003f58033d968032a21f4e001d96008bf002302eb
            04001a4c18bf2860226908bf2b607ab1d4e90201164e237d3568042d0cbf
            002501353560fff782ffbde87940854670472b6803eb83039b0003f14023
            03f58033db6813f4e003efd10120094962682b6020700b60002ae7d09047
            bde879408546704700bf74040020000028427c04002078040020684620f0
            07018d46264b31b51b6813f4706f1dd0244c216801eb8102d20102f18442
            02f52012d2f808228b003ab102201e4a5568107015b1a84721688b000b44
            db0103f1844303f52013d3f80c3203bb144b1b6813f4704f05d00420134b
            5a68187002b19047bde831400122104b8546c3f8c821c3f8802ac3f84824
            c3f8842ac3f8c826c3f8882ac3f84829c3f88c2a70470320054b5a681870
            002ad8d09047d6e700bf00400140740400207c0400200000284238b5104b
            082904465d5c00680cd80830fff7e4fc236845ea0001c9b203f10800bde8
            3840fff7d8bc0c30fff7d7fc236845ea0001c9b203f10c00bde83840fff7
            cbbc00bf0411000038b5104b082904465d5c00680cd80830fff7c0fc2368
            20ea0501c9b203f10800bde83840fff7b4bc0c30fff7b3fc236820ea0501
            c9b203f10c00bde83840fff7a7bc00bf0411000070b5044616461d460160
            01f108000021fff79afc206800210c30fff795fc31462068fff761fc2068
            29460430fff75cfc206800211030fff757fc206800211830fff752fc2068
            00212030fff74dfc206800212830fff748fc206800213030fff743fc2068
            00213830fff73efc206800214030fff739fc206800214830fff734fc2068
            00215030fff72ffc206800215830fff72afc206800216030fff725fc2068
            00216830fff720fc206800217030fff71bfc206800217830fff716fc2068
            00218030fff711fc20680021bde870408830fff70abc4b1e0f2b06d870b5
            164622b9bde87040fff768bf70470c4605460b4b006853f8213000211844
            fff7f5fb084b286853f8243031461844fff7edfb21462846bde87040fff7
            2bbf00bf5c110000181100004ff602023b4b70b5d3f84c11914218d0394a
            3849536943f4007353618b68ebb1fff772fb354b33481a46816c21f48031
            8164196841f0030119605368db07fcd570bdd3f8982042f48072c3f89820
            d3f8982022f08062c3f89820d9e7284a294b12689c1c114603f1720533f8
            020fab4241f8040bf9d1244b02f5077104f1f20533f8020fab4241f8040b
            f9d10123b4f8f410b4f8f650c2f80014b4f8f800b4f8fa10c2f80454c2f8
            0804b4f8fc50c2f80c14b4f8fe00b4f80011c2f81054b4f80261c2f81404
            b4f80451c2f81814b4f80601b4f80811c2f81c64c2f84054c2f84404c2f8
            48141360d2f8e430002bfbd096e700bf0080034000ed00e000200240f40f
            0000f60f0000681000002de9f041962382b008224ff0a0412048fff7defe
            0122164611461d48fff742ff324602211a48374635463446fff73affdff8
            5c80224601214046fff733ff2a4602214046fff72eff002342f20f720193
            019b934205dc019b01330193019b9342f9dd3c44952c09d93544b5f5c87f
            4ff0ff370ad2002d08bf0126dbe7002c354408bf0127b5f5c87ff4d34ff0
            ff36d1e79404002070b50d4e0d4d761bb61006d0002455f8043b01349847
            a642f9d1094e094d00f05bf9761bb61006d0002455f8043b01349847a642
            f9d170bdbc110000bc110000c4110000bc110000024b13b1024800f005b8
            704700000000350f0000002301461a46184600f01ab838b5084b084d5b1b
            9c1007d0043b1d44013c55f804399847002cf9d1bde8384000f02cb9c811
            0000c4110000704700bf704700bf2de9f047dff880a00646daf800009846
            0f469146fff7f0ff1a4b1b68d3f8484124b365681f2d26dc5eb96b1c0235
            daf80000636044f82570fff7e0ff0020bde8f087012304eb8501c1f88890
            d4f88821ab401a43022ec4f88821c1f80881e4d1d4f88c211343c4f88c31
            dee703f5a674c3f84841d5e7daf80000fff7bfff4ff0ff30dce7a0110000
            2804002000080240000000005e1e5702020000000201880800003f33ffff
            7777770701003b4208001003440000000000c903850035026400ab027801
            3300c515140018000033000000000604000000024000120002000040f880
            0700f8800700000200000000040003004000000000000000000009030100
            0000000000008000000000000300000000000000000000000b0000000000
            000000008000042000010800000000000000000000000100000000000000
            000000005040010514500000000000000000000000000000000000000000
            000000000000500001051050000000000000000000000000430000000300
            010001000000000000000100000000000000000000000000000000000000
            000000000000000102040810204080010204081020408000000000000000
            140000001c000000240000002c000000340000003c000000440000004c00
            0000540000005c000000640000006c000000740000007c00000084000000
            8c0000000000000010000000180000002000000028000000300000003800
            000040000000480000005000000058000000600000006800000070000000
            78000000800000008800000000000020f8b500bff8bc08bc9e467047f8b5
            00bff8bc08bc9e467047150f0000d5040000b10400000000000000000000
            00000000ec02002054030020bc0300200000000000000000000000000000
            000000000000000000000000000000000000000000000000000000000000
            000000000000000000000000000000000000000000000000000000000000
            000000000000000000000000000000000000000000000000000000000000
            000000000000000000000000000000000000000000000000000000000000
            00000000000000000000000000000000000001000000000000000e33cdab
            34126de6ecde05000b000000000000000000000000000000000000000000
            000000000000000000000000000000000000000000000000000000000000
            000000000000000000000000000000000000000000000000000000000000
            000000000000000000000000000000000000000000000000000000000000
            000000000000000000000000000000000000000000000000000000000000
            000000000000000000000000000000000000000000000000000000000000
            000000000000000000000000000000000000000000000000000000000000
            000000000000000000000000000000000000000000000000000000000000
            000000000000000000000000000000000000000000000000000000000000
            000000000000000000000000000000000000000000000000000000000000
            000000000000000000000000000000000000000000000000000000000000
            000000000000000000000000000000000000000000000000000000000000
            000000000000000000000000000000000000000000000000000000000000
            000000000000000000000000000000000000000000000000000000000000
            000000000000000000000000000000000000000000000000000000000000
            000000000000000000000000000000000000000000000000000000000000
            000000000000000000000000000000000000000000000000000000000000
            000000000000000000000000000000000000000000000000000000000000
            000000000000000000000000000000000000000000000000000000000000
            000000000000000000000000000000000000000000000000000000000000
            000000000000000000000000000000000000000000000000000000000000
            000000000000000000000000000000000000000000000000000000000000
            000000000000000000000000000000000000000000000000000000000000
            000000000000000000000000000000000000000000000000000000000000
            000000000000000000000000000000000000000000000000000000000000
            000000000000000000000000000000000000000000000000000000000000
            000000000000000000000000000000000000000000000000000000000000
            000000000000000000000000000000000000000000000000000000000000
            000000000000000000000000000000000000000000000000000000000000
            00000000000000000000000000009804002000000000
            <crc>
                215e
            </crc>
        </region>
        <region name="DAC_store" address="0x002c00" retrieveAddressFromFile="false" size="2048" format="HEX" type="Data Storage" wordSize="16" numberWords="1024" memFile="C:\MicroSemiProj\EvalBoardSandbox" memType="" memFileTimeStamp="1706555647" clientType="public" program="true">
            <fabric_accessible/>
            <mss_accessible/>
            000000000000000000000000000000000000000000000000000000000000
            000000000000000000000000000000000000000000000000000000000000
            000000000000000000000000000000000000000000000000000000000000
            000000000000000000000000000000000000000000000000000000000000
            000000000000000000000000000000000000000000000000000000000000
            000000000000000000000000000000000000000000000000000000000000
            000000000000000000000000000000000000000000000000000000000000
            000000000000000000000000000000000000000000000000000000000000
            000000000000000000000000000000000000000000000000000000000000
            000000000000000000000000000000000000000000000000000000000000
            000000000000000000000000000000000000000000000000000000000000
            000000000000000000000000000000000000000000000000000000000000
            000000000000000000000000000000000000000000000000000000000000
            000000000000000000000000000000000000000000000000000000000000
            000000000000000000000000000000000000000000000000000000000000
            000000000000000000000000000000000000000000000000000000000000
            000000000000000000000000000000000000000000000000000000000000
            000000000000000000000000000000000000000000000000000000000000
            000000000000000000000000000000000000000000000000000000000000
            000000000000000000000000000000000000000000000000000000000000
            000000000000000000000000000000000000000000000000000000000000
            000000000000000000000000000000000000000000000000000000000000
            000000000000000000000000000000000000000000000000000000000000
            000000000000000000000000000000000000000000000000000000000000
            000000000000000000000000000000000000000000000000000000000000
            000000000000000000000000000000000000000000000000000000000000
            000000000000000000000000000000000000000000000000000000000000
            000000000000000000000000000000000000000000000000000000000000
            000000000000000000000000000000000000000000000000000000000000
            000000000000000000000000000000000000000000000000000000000000
            000000000000000000000000000000000000000000000000000000000000
            000000000000000000000000000000000000000000000000000000000000
            000000000000000000000000000000000000000000000000000000000000
            000000000000000000000000000000000000000000000000000000000000
            000000000000000000000000000000000000000000000000000000000000
            000000000000000000000000000000000000000000000000000000000000
            000000000000000000000000000000000000000000000000000000000000
            000000000000000000000000000000000000000000000000000000000000
            000000000000000000000000000000000000000000000000000000000000
            000000000000000000000000000000000000000000000000000000000000
            000000000000000000000000000000000000000000000000000000000000
            000000000000000000000000000000000000000000000000000000000000
            000000000000000000000000000000000000000000000000000000000000
            000000000000000000000000000000000000000000000000000000000000
            000000000000000000000000000000000000000000000000000000000000
            000000000000000000000000000000000000000000000000000000000000
            000000000000000000000000000000000000000000000000000000000000
            000000000000000000000000000000000000000000000000000000000000
            000000000000000000000000000000000000000000000000000000000000
            000000000000000000000000000000000000000000000000000000000000
            000000000000000000000000000000000000000000000000000000000000
            000000000000000000000000000000000000000000000000000000000000
            000000000000000000000000000000000000000000000000000000000000
            000000000000000000000000000000000000000000000000000000000000
            000000000000000000000000000000000000000000000000000000000000
            000000000000000000000000000000000000000000000000000000000000
            000000000000000000000000000000000000000000000000000000000000
            000000000000000000000000000000000000000000000000000000000000
            000000000000000000000000000000000000000000000000000000000000
            000000000000000000000000000000000000000000000000000000000000
            000000000000000000000000000000000000000000000000000000000000
            000000000000000000000000000000000000000000000000000000000000
            000000000000000000000000000000000000000000000000000000000000
            000000000000000000000000000000000000000000000000000000000000
            000000000000000000000000000000000000000000000000000000000000
            000000000000000000000000000000000000000000000000000000000000
            000000000000000000000000000000000000000000000000000000000000
            000000000000000000000000000000000000000000000000000000000000
            0000000000000000
            <crc>
                0000
            </crc>
        </region>
    </nvm>
</Actel_Data_File>
